##TITLE=1D-1H-"Manual"-20--10-1.6-2-0-1.6-1-0.5-1.6-1-0-2-3.2-4-"Off"-"Off"
##JCAMP-DX=5.01 $$ Magritek Spinsolve SPA3681 2.3.7.6718
##DATA TYPE=NMR FID
##DATA CLASS=NTUPLES
##ORIGIN=SPA3681 at Magritek
##OWNER=Copyright (C) 2025 by Magritek
##LONGDATE=2025/05/06 11:28:50.827
##.OBSERVE FREQUENCY=80.7253052480519
##.OBSERVE NUCLEUS=^1H
##.DELAY=( 24,  4000)
##.ACQUISITION MODE=SIMULTANEOUS
##.FIELD= 2.0
##.AVERAGES= 2
##.DIGITISER RES=16
##.SHIFT REFERENCE=(INTERNAL, DMSO, 16799, 4.74)
##$REFERENCE_POINT= 867.424    $$ Referencing label
$$      Distance of the zero axis position (in Hz) from the last data
$$      point (right edge); positive values -> right edge is below 0 Hz
##SPECTROMETER/DATA SYSTEM=Magritek
##SAMPLE DESCRIPTION=solvent=DMSO
$$ Bruker specific parameters
$$ --------------------------
##$AUNMP=   <proc_1d_nosref>
##$INSTRUM= <Magritek>
##$SI=      8192
##$TD=      8192
##$TDeff=   8192
##$SW=      30.969220
##$BF1=     80.7253052480519
##$SF=      80.724922504185
##$LB=      0
##$PHC0=    0.2
##$PHC1=    0.0
##$REVERSE= yes
$$ End of Bruker specific parameters
$$ ---------------------------------
##NTUPLES=NMR FID
##VAR_NAME=        TIME,            FID/REAL,            FID/REAL, PAGE NUMBER
##SYMBOL=             X,                   R,                   I,           N
##VAR_TYPE= INDEPENDENT,           DEPENDENT,           DEPENDENT,        PAGE
##VAR_FORM=        AFFN,                AFFN,                AFFN,        AFFN
##VAR_DIM=         8192,                8192,                8192,           2
##UNITS=        SECONDS,     ARBITRARY UNITS,     ARBITRARY UNITS,
##FIRST=              0,    369.904026921932,   -1.29121388158883,           1
##LAST=    3.276399e+00,   0.139394946069936,   0.131225083509441,           2
##MIN=                0,   -456.759388458274,   -450.596531566382,           1
##MAX=     3.276399e+00,    657.174531712986,    578.434438228584,           2
##FACTOR=             1,                   1,                   1,           1
##PAGE=N=1
##DATA TABLE=(X++(R..R)), XYDATA
0.000000   369.904027   657.174532   394.416892    72.338479  -180.175004  -324.760993
0.002400  -327.222266  -259.336119  -192.904064  -175.444071  -200.481078  -219.325597
0.004800  -181.675161   -64.715275   103.016580   267.325592   372.262340   389.810986
0.007200   331.855067   240.530505   147.870507    70.150083     1.776009   -80.254640
0.009600  -176.822345  -272.887028  -326.275729  -304.454247  -202.169114   -49.573906
0.012000    88.735163   166.337508   159.530587    99.247426    38.724787    37.530625
0.014400   116.414772   236.627818   333.391687   341.173265   226.906048    20.263303
0.016800  -208.214607  -387.683460  -456.759388  -406.639744  -278.664338  -131.249590
0.019200    -4.656542    75.029436   110.385299   134.897211   165.802935   198.193254
0.021600   220.846489   219.745437   177.276243   100.313839    15.416468   -66.057534
0.024000  -139.831008  -204.159159  -258.270506  -305.038195  -319.703748  -279.304696
0.026400  -175.880352   -24.139752   144.675931   274.878235   329.609979   290.757356
0.028800   187.737342    66.862852   -30.376152   -70.164780   -58.708508   -28.442405
0.031200   -23.106471   -71.485257  -163.939607  -274.871073  -348.204801  -350.011122
0.033600  -269.801729  -116.490114    61.951401   220.367259   329.529502   361.874806
0.036000   320.605613   225.393656   105.391575   -18.876653  -128.561768  -203.705834
0.038400  -244.104457  -251.896047  -230.240819  -195.331065  -153.108169  -109.840371
0.040800   -68.202166   -16.775125    43.262840   117.535642   196.019827   256.069505
0.043200   276.229582   239.653289   138.471720    -5.433622  -154.130039  -264.083085
0.045600  -309.164349  -262.439945  -155.208603   -32.669526    62.292855    96.298229
0.048000    64.243940    -6.246898   -74.411941   -96.460274   -50.777532    49.919296
0.050400   165.269678   254.230291   274.681991   219.548742   110.347733   -18.166836
0.052800  -129.847634  -196.146513  -215.569723  -196.209237  -158.255426  -112.109527
0.055200   -68.927519   -27.009902    18.648591    64.841467   111.114078   157.652878
0.057600   192.435973   221.729059   237.174039   228.357209   186.423592    94.008008
0.060000   -43.506558  -199.111481  -334.799356  -400.689791  -363.028940  -228.719550
0.062400   -31.407219   164.024111   292.986351   318.659612   256.970155   155.480179
0.064800    65.894603    29.335712    52.190267   105.107903   138.969067   117.152125
0.067200    27.735513   -91.845386  -203.703406  -265.519588  -255.183467  -187.600121
0.069600   -87.048173    18.306567   105.204190   165.075537   205.397108   225.221101
0.072000   219.649482   185.449502   126.695102    55.167866    -8.548739   -37.556339
0.074400   -44.944829   -36.555232   -42.941712   -84.269815  -166.123776  -246.847365
0.076800  -279.053198  -223.669365   -77.831742   121.452455   309.714187   416.052458
0.079200   403.775031   282.290939   107.903491   -51.396338  -140.517179  -145.496359
0.081600  -103.515102   -58.488495   -51.497914   -89.606594  -145.051776  -185.772456
0.084000  -183.237594  -131.939162   -42.678710    51.546328   123.881780   177.126155
0.086400   208.719613   228.230119   227.860985   190.964444   110.415990   -11.155284
0.088800  -142.442234  -246.461207  -290.377587  -259.951892  -176.573034   -90.452313
0.091200   -43.150824   -45.087567   -75.277669   -89.904597   -38.875539    82.339368
0.093600   246.619395   386.860836   429.048660   345.638838   155.778904   -84.900075
0.096000  -296.207628  -417.774091  -435.123160  -363.510850  -244.967147  -135.933760
0.098400   -46.345885    24.134455    82.867825   141.833473   194.371273   229.264107
0.100800   230.484553   189.256872   120.744922    46.966602   -22.615629   -77.624990
0.103200  -132.766678  -193.738396  -253.150467  -296.881624  -291.859041  -223.105312
0.105600   -95.264679    60.715748   198.818613   267.428846   252.108470   167.358764
0.108000    59.824921   -15.716341   -33.890845     2.914871    58.229925    88.467908
0.110400    54.546595   -39.984171  -169.370548  -284.665609  -331.466623  -298.274937
0.112800  -199.302033   -56.085325    86.890610   192.824063   257.859622   275.295714
0.115200   249.872013   201.440528   133.981063    57.502115   -20.745181   -89.956404
0.117600  -140.849071  -172.346037  -183.269774  -183.018305  -177.999532  -162.414184
0.120000  -132.317749   -73.602759    20.695565   140.029016   258.264730   339.122161
0.122400   357.762198   296.748259   169.029317    10.904300  -136.612525  -230.609352
0.124800  -250.180552  -203.899972  -131.780248   -60.198157   -23.709869   -20.683173
0.127200   -37.288282   -48.305797   -21.311193    49.827718   146.743757   243.031985
0.129600   303.294876   300.580151   232.690569   114.690451   -18.431355  -141.876904
0.132000  -224.273334  -254.833386  -238.800146  -189.821607  -118.321821   -38.807623
0.134400    31.767790    88.550544   132.535882   155.649562   168.191737   171.782416
0.136800   169.140102   160.484810   143.425039   107.441245    39.453620   -62.610990
0.139200  -168.621111  -260.091409  -301.022695  -267.043707  -161.177011    -9.645813
0.141600   132.785921   229.494134   247.027946   192.462968   101.502478    18.265436
0.144000   -25.267767   -10.548113    38.459863    84.076242    93.879780    56.059262
0.146400   -21.961244  -108.080425  -175.211330  -198.307003  -177.111387  -119.912666
0.148800   -48.801088    12.637498    67.589615   113.409599   142.623065   156.450684
0.151200   148.321505   117.027557    66.869820    18.122332   -12.853717   -27.980506
0.153600   -35.828405   -54.309583   -91.423132  -156.829840  -224.763318  -258.181719
0.156000  -228.783037  -121.593599    43.235293   212.647227   325.109391   339.941999
0.158400   260.386314   119.374301   -26.867570  -127.654456  -164.877341  -148.678264
0.160800  -106.028647   -77.185586   -77.808321  -100.984955  -126.157347  -123.142440
0.163200   -89.663804   -31.582747    32.725869    89.832995   126.420481   141.578189
0.165600   140.089705   128.200807    97.469099    42.375181   -31.469141  -109.570933
0.168000  -172.056765  -187.669178  -153.788100   -90.290450   -24.980986    10.746526
0.170400     6.583850   -39.820310   -86.407166   -89.664783   -34.520260    71.078528
0.172800   190.296184   266.397383   258.629931   170.826261    29.790518  -115.385066
0.175200  -216.180771  -248.410658  -219.072713  -152.448000   -84.022542   -34.930179
0.177600    -6.361041     7.446735    26.206909    52.460348    80.268678   103.355212
0.180000   114.150250   112.434442   104.793908    91.137912    69.864819    32.842142
0.182400   -25.894957  -106.289694  -187.136110  -234.579143  -227.906895  -160.392815
0.184800   -52.032854    61.336727   139.496135   158.219235   126.928662    72.366767
0.187200    33.984534    37.503341    77.691949   131.801719   159.761563   132.972964
0.189600    47.318543   -78.810885  -199.890995  -275.612446  -283.962204  -228.527278
0.192000  -122.817563    -1.015272   106.565460   190.661200   233.427420   239.673965
0.194400   215.798051   164.780453    99.770902    26.311055   -35.445313   -74.527032
0.196800   -95.816968  -105.403069  -109.347136  -120.985728  -133.978228  -135.639422
0.199200  -112.106128   -52.537019    41.243703   149.869814   241.858746   281.325658
0.201600   256.633928   169.949689    55.571871   -53.008787  -122.321057  -141.089755
0.204000  -112.163762   -60.765573   -25.949415   -18.714839   -38.775046   -75.099449
0.206400  -103.124112  -101.999789   -59.886186    19.423891   114.719787   195.099717
0.208800   237.040349   237.888237   190.223106   101.779814     3.178296   -90.377643
0.211200  -158.224664  -186.939083  -182.064454  -151.611511  -113.550893   -70.923239
0.213600   -30.510362     1.811528    27.696518    58.078957    99.446279   142.344072
0.216000   184.096733   207.617301   195.463565   138.584097    40.489249   -83.249565
